Wavelength (nm),Absorbance,Title,Time
190,-0.16,12S_01oct2015,10/8/2015 11:15:58 AM
191,-0.555,,
192,-0.525,,
193,-0.432,,
194,-0.142,,
195,-0.256,,
196,-0.288,,
197,-0.389,,
198,-0.631,,
199,-0.275,,
200,0.246,,
201,0.554,,
202,0.187,,
203,-0.427,,
204,-0.753,,
205,-0.537,,
206,-0.018,,
207,-0.075,,
208,-0.067,,
209,-0.212,,
210,-0.226,,
211,0.099,,
212,0.154,,
213,0.251,,
214,0.12,,
215,-0.004,,
216,-0.036,,
217,0.025,,
218,0.068,,
219,0.12,,
220,0.182,,
221,0.199,,
222,0.196,,
223,0.204,,
224,0.208,,
225,0.202,,
226,0.198,,
227,0.19,,
228,0.193,,
229,0.192,,
230,0.188,,
231,0.181,,
232,0.173,,
233,0.165,,
234,0.159,,
235,0.157,,
236,0.155,,
237,0.151,,
238,0.148,,
239,0.145,,
240,0.144,,
241,0.146,,
242,0.145,,
243,0.142,,
244,0.137,,
245,0.135,,
246,0.138,,
247,0.14,,
248,0.14,,
249,0.136,,
250,0.132,,
251,0.131,,
252,0.131,,
253,0.13,,
254,0.128,,
255,0.125,,
256,0.124,,
257,0.124,,
258,0.126,,
259,0.126,,
260,0.126,,
261,0.123,,
262,0.12,,
263,0.117,,
264,0.116,,
265,0.116,,
266,0.115,,
267,0.114,,
268,0.112,,
269,0.111,,
270,0.111,,
271,0.11,,
272,0.108,,
273,0.105,,
274,0.104,,
275,0.103,,
276,0.102,,
277,0.101,,
278,0.098,,
279,0.097,,
280,0.097,,
281,0.096,,
282,0.095,,
283,0.093,,
284,0.09,,
285,0.089,,
286,0.087,,
287,0.086,,
288,0.084,,
289,0.083,,
290,0.082,,
291,0.081,,
292,0.081,,
293,0.079,,
294,0.078,,
295,0.077,,
296,0.076,,
297,0.075,,
298,0.073,,
299,0.071,,
300,0.069,,
301,0.068,,
302,0.067,,
303,0.066,,
304,0.065,,
305,0.064,,
306,0.063,,
307,0.062,,
308,0.061,,
309,0.061,,
310,0.061,,
311,0.06,,
312,0.058,,
313,0.056,,
314,0.056,,
315,0.056,,
316,0.055,,
317,0.053,,
318,0.053,,
319,0.053,,
320,0.052,,
321,0.051,,
322,0.05,,
323,0.051,,
324,0.051,,
325,0.049,,
326,0.047,,
327,0.046,,
328,0.046,,
329,0.046,,
330,0.045,,
331,0.044,,
332,0.043,,
333,0.043,,
334,0.042,,
335,0.041,,
336,0.041,,
337,0.042,,
338,0.041,,
339,0.04,,
340,0.038,,
341,0.037,,
342,0.038,,
343,0.038,,
344,0.037,,
345,0.037,,
346,0.036,,
347,0.035,,
348,0.034,,
349,0.033,,
350,0.032,,
351,0.032,,
352,0.032,,
353,0.032,,
354,0.031,,
355,0.031,,
356,0.032,,
357,0.032,,
358,0.031,,
359,0.03,,
360,0.029,,
361,0.029,,
362,0.029,,
363,0.029,,
364,0.028,,
365,0.027,,
366,0.026,,
367,0.026,,
368,0.025,,
369,0.025,,
370,0.025,,
371,0.024,,
372,0.025,,
373,0.025,,
374,0.024,,
375,0.023,,
376,0.022,,
377,0.022,,
378,0.022,,
379,0.022,,
380,0.021,,
381,0.021,,
382,0.02,,
383,0.019,,
384,0.018,,
385,0.018,,
386,0.018,,
387,0.019,,
388,0.019,,
389,0.018,,
390,0.018,,
391,0.018,,
392,0.019,,
393,0.018,,
394,0.018,,
395,0.017,,
396,0.016,,
397,0.015,,
398,0.014,,
399,0.014,,
400,0.013,,
401,0.013,,
402,0.014,,
403,0.014,,
404,0.014,,
405,0.014,,
406,0.014,,
407,0.014,,
408,0.015,,
409,0.014,,
410,0.013,,
411,0.012,,
412,0.012,,
413,0.011,,
414,0.01,,
415,0.011,,
416,0.012,,
417,0.013,,
418,0.012,,
419,0.011,,
420,0.012,,
421,0.012,,
422,0.012,,
423,0.012,,
424,0.011,,
425,0.011,,
426,0.01,,
427,0.009,,
428,0.008,,
429,0.008,,
430,0.009,,
431,0.009,,
432,0.009,,
433,0.007,,
434,0.008,,
435,0.009,,
436,0.008,,
437,0.008,,
438,0.008,,
439,0.008,,
440,0.007,,
441,0.008,,
442,0.008,,
443,0.009,,
444,0.008,,
445,0.007,,
446,0.007,,
447,0.007,,
448,0.007,,
449,0.006,,
450,0.006,,
451,0.006,,
452,0.005,,
453,0.005,,
454,0.005,,
455,0.005,,
456,0.005,,
457,0.005,,
458,0.005,,
459,0.005,,
460,0.005,,
461,0.005,,
462,0.004,,
463,0.003,,
464,0.004,,
465,0.004,,
466,0.004,,
467,0.004,,
468,0.003,,
469,0.003,,
470,0.004,,
471,0.004,,
472,0.005,,
473,0.005,,
474,0.004,,
475,0.003,,
476,0.003,,
477,0.003,,
478,0.003,,
479,0.003,,
480,0.002,,
481,0.002,,
482,0.003,,
483,0.004,,
484,0.005,,
485,0.005,,
486,0.005,,
487,0.005,,
488,0.005,,
489,0.005,,
490,0.005,,
491,0.004,,
492,0.004,,
493,0.004,,
494,0.003,,
495,0.002,,
496,0.002,,
497,0.002,,
498,0.003,,
499,0.003,,
500,0.002,,
501,0.001,,
502,0,,
503,0.001,,
504,0.002,,
505,0.003,,
506,0.003,,
507,0.003,,
508,0.002,,
509,0.001,,
510,0,,
511,0.001,,
512,0.002,,
513,0.002,,
514,0.001,,
515,0.001,,
516,0.001,,
517,0.001,,
518,0.002,,
519,0.002,,
520,0.002,,
521,0.001,,
522,0.001,,
523,0.001,,
524,0,,
525,0,,
526,0.001,,
527,0.001,,
528,0.002,,
529,0.002,,
530,0.002,,
531,0.002,,
532,0.002,,
533,0.002,,
534,0.002,,
535,0.002,,
536,0.001,,
537,0.001,,
538,0.001,,
539,0,,
540,0,,
541,0,,
542,0.001,,
543,0.002,,
544,0.001,,
545,0.001,,
546,0.001,,
547,0.001,,
548,0,,
549,0,,
550,0.001,,
551,0.001,,
552,0,,
553,0,,
554,0,,
555,-0.001,,
556,-0.002,,
557,-0.001,,
558,0,,
559,0,,
560,0,,
561,0,,
562,0,,
563,0,,
564,-0.001,,
565,-0.001,,
566,0,,
567,-0.001,,
568,-0.001,,
569,-0.002,,
570,-0.002,,
571,-0.002,,
572,-0.001,,
573,-0.001,,
574,0,,
575,-0.001,,
576,0,,
577,0,,
578,0,,
579,0.001,,
580,-0.001,,
581,0,,
582,-0.002,,
583,-0.002,,
584,-0.002,,
585,-0.002,,
586,-0.002,,
587,-0.001,,
588,-0.002,,
589,-0.003,,
590,-0.002,,
591,0,,
592,0,,
593,-0.002,,
594,-0.004,,
595,-0.004,,
596,-0.004,,
597,-0.003,,
598,-0.002,,
599,-0.001,,
600,-0.001,,
601,-0.001,,
602,-0.001,,
603,0,,
604,0,,
605,0,,
606,-0.001,,
607,-0.001,,
608,-0.001,,
609,-0.002,,
610,-0.001,,
611,-0.001,,
612,-0.001,,
613,-0.002,,
614,-0.002,,
615,-0.002,,
616,-0.003,,
617,-0.003,,
618,-0.003,,
619,-0.002,,
620,-0.003,,
621,-0.004,,
622,-0.003,,
623,-0.004,,
624,-0.004,,
625,-0.004,,
626,-0.002,,
627,0,,
628,0.001,,
629,0,,
630,-0.002,,
631,-0.002,,
632,-0.003,,
633,-0.004,,
634,-0.004,,
635,-0.003,,
636,-0.001,,
637,-0.002,,
638,-0.002,,
639,-0.003,,
640,-0.004,,
641,-0.004,,
642,-0.002,,
643,-0.003,,
644,-0.003,,
645,-0.003,,
646,-0.003,,
647,-0.004,,
648,-0.006,,
649,-0.005,,
650,-0.003,,
651,-0.003,,
652,-0.004,,
653,-0.004,,
654,-0.003,,
655,-0.003,,
656,-0.004,,
657,-0.004,,
658,-0.003,,
659,-0.002,,
660,-0.001,,
661,0,,
662,-0.001,,
663,-0.002,,
664,-0.003,,
665,-0.003,,
666,-0.002,,
667,-0.003,,
668,-0.004,,
669,-0.003,,
670,-0.004,,
671,-0.004,,
672,-0.004,,
673,-0.003,,
674,-0.005,,
675,-0.006,,
676,-0.006,,
677,-0.004,,
678,-0.004,,
679,-0.005,,
680,-0.006,,
681,-0.005,,
682,-0.005,,
683,-0.005,,
684,-0.005,,
685,-0.005,,
686,-0.005,,
687,-0.005,,
688,-0.006,,
689,-0.006,,
690,-0.005,,
691,-0.004,,
692,-0.004,,
693,-0.005,,
694,-0.006,,
695,-0.003,,
696,-0.003,,
697,-0.003,,
698,-0.004,,
699,-0.002,,
700,-0.003,,
701,-0.004,,
702,-0.006,,
703,-0.006,,
704,-0.003,,
705,-0.003,,
706,-0.004,,
707,-0.004,,
708,-0.003,,
709,-0.004,,
710,-0.005,,
711,-0.005,,
712,-0.004,,
713,-0.004,,
714,-0.002,,
715,-0.003,,
716,-0.002,,
717,-0.003,,
718,-0.003,,
719,-0.004,,
720,-0.005,,
721,-0.005,,
722,-0.004,,
723,-0.004,,
724,-0.004,,
725,-0.003,,
726,-0.002,,
727,-0.003,,
728,-0.003,,
729,-0.002,,
730,-0.001,,
731,0,,
732,-0.002,,
733,-0.005,,
734,-0.003,,
735,-0.002,,
736,-0.003,,
737,-0.005,,
738,-0.004,,
739,-0.005,,
740,-0.006,,
741,-0.006,,
742,-0.005,,
743,-0.006,,
744,-0.006,,
745,-0.003,,
746,-0.001,,
747,-0.004,,
748,-0.006,,
749,-0.004,,
750,0,,
751,-0.002,,
752,-0.006,,
753,-0.008,,
754,-0.007,,
755,-0.006,,
756,-0.005,,
757,-0.005,,
758,-0.007,,
759,-0.008,,
760,-0.008,,
761,-0.007,,
762,-0.007,,
763,-0.007,,
764,-0.007,,
765,-0.004,,
766,-0.003,,
767,-0.004,,
768,-0.008,,
769,-0.007,,
770,-0.005,,
771,-0.006,,
772,-0.007,,
773,-0.006,,
774,-0.006,,
775,-0.005,,
776,-0.004,,
777,-0.001,,
778,-0.001,,
779,0,,
780,-0.001,,
781,0,,
782,0,,
783,-0.002,,
784,-0.003,,
785,-0.005,,
786,-0.006,,
787,-0.005,,
788,-0.004,,
789,-0.005,,
790,-0.005,,
791,-0.003,,
792,-0.002,,
793,0,,
794,0.001,,
795,0.001,,
796,-0.005,,
797,-0.006,,
798,-0.01,,
799,-0.012,,
800,-0.011,,
801,-0.004,,
802,-0.004,,
803,-0.006,,
804,-0.008,,
805,-0.011,,
806,-0.009,,
807,-0.008,,
808,-0.003,,
809,-0.006,,
810,-0.004,,
811,-0.007,,
812,-0.007,,
813,-0.007,,
814,0,,
815,0.001,,
816,0,,
817,-0.001,,
818,-0.002,,
819,-0.003,,
820,-0.003,,
821,0,,
822,-0.003,,
823,-0.008,,
824,-0.008,,
825,-0.005,,
826,-0.002,,
827,-0.003,,
828,-0.003,,
829,-0.004,,
830,0,,
831,-0.002,,
832,-0.002,,
833,-0.003,,
834,-0.005,,
835,-0.007,,
836,-0.006,,
837,-0.006,,
838,-0.006,,
839,-0.003,,
840,0,,