Wavelength (nm),Absorbance,Title,Time
190,0.363,4L_22oct2015,10/29/2015 9:31:28 AM
191,0.563,,
192,0.528,,
193,0.289,,
194,0.124,,
195,-0.269,,
196,-0.283,,
197,-0.293,,
198,-0.551,,
199,-0.223,,
200,-0.159,,
201,-0.066,,
202,-0.019,,
203,-0.115,,
204,-0.019,,
205,-0.178,,
206,-0.169,,
207,-0.237,,
208,-0.093,,
209,-0.089,,
210,-0.119,,
211,-0.014,,
212,0.007,,
213,-0.016,,
214,-0.252,,
215,-0.216,,
216,-0.065,,
217,0.135,,
218,0.302,,
219,0.339,,
220,0.339,,
221,0.31,,
222,0.286,,
223,0.337,,
224,0.346,,
225,0.345,,
226,0.341,,
227,0.341,,
228,0.34,,
229,0.341,,
230,0.339,,
231,0.331,,
232,0.32,,
233,0.314,,
234,0.31,,
235,0.307,,
236,0.305,,
237,0.3,,
238,0.297,,
239,0.293,,
240,0.289,,
241,0.286,,
242,0.282,,
243,0.28,,
244,0.278,,
245,0.277,,
246,0.276,,
247,0.273,,
248,0.268,,
249,0.263,,
250,0.261,,
251,0.258,,
252,0.255,,
253,0.25,,
254,0.249,,
255,0.248,,
256,0.248,,
257,0.247,,
258,0.245,,
259,0.244,,
260,0.241,,
261,0.239,,
262,0.236,,
263,0.235,,
264,0.232,,
265,0.229,,
266,0.228,,
267,0.226,,
268,0.225,,
269,0.221,,
270,0.219,,
271,0.217,,
272,0.216,,
273,0.214,,
274,0.211,,
275,0.208,,
276,0.205,,
277,0.202,,
278,0.201,,
279,0.2,,
280,0.198,,
281,0.196,,
282,0.193,,
283,0.19,,
284,0.186,,
285,0.184,,
286,0.18,,
287,0.178,,
288,0.177,,
289,0.176,,
290,0.173,,
291,0.169,,
292,0.166,,
293,0.164,,
294,0.162,,
295,0.16,,
296,0.158,,
297,0.156,,
298,0.152,,
299,0.15,,
300,0.148,,
301,0.147,,
302,0.145,,
303,0.143,,
304,0.141,,
305,0.139,,
306,0.137,,
307,0.134,,
308,0.132,,
309,0.132,,
310,0.13,,
311,0.128,,
312,0.127,,
313,0.124,,
314,0.122,,
315,0.121,,
316,0.119,,
317,0.118,,
318,0.116,,
319,0.116,,
320,0.115,,
321,0.113,,
322,0.111,,
323,0.11,,
324,0.108,,
325,0.107,,
326,0.106,,
327,0.104,,
328,0.102,,
329,0.101,,
330,0.1,,
331,0.099,,
332,0.098,,
333,0.097,,
334,0.094,,
335,0.093,,
336,0.091,,
337,0.09,,
338,0.089,,
339,0.088,,
340,0.086,,
341,0.085,,
342,0.084,,
343,0.084,,
344,0.083,,
345,0.081,,
346,0.079,,
347,0.078,,
348,0.078,,
349,0.077,,
350,0.076,,
351,0.074,,
352,0.073,,
353,0.072,,
354,0.072,,
355,0.07,,
356,0.069,,
357,0.068,,
358,0.068,,
359,0.068,,
360,0.067,,
361,0.067,,
362,0.067,,
363,0.064,,
364,0.063,,
365,0.062,,
366,0.062,,
367,0.062,,
368,0.062,,
369,0.061,,
370,0.061,,
371,0.06,,
372,0.059,,
373,0.058,,
374,0.057,,
375,0.057,,
376,0.056,,
377,0.054,,
378,0.054,,
379,0.053,,
380,0.053,,
381,0.053,,
382,0.051,,
383,0.05,,
384,0.049,,
385,0.048,,
386,0.049,,
387,0.049,,
388,0.048,,
389,0.048,,
390,0.047,,
391,0.047,,
392,0.047,,
393,0.047,,
394,0.047,,
395,0.046,,
396,0.044,,
397,0.042,,
398,0.041,,
399,0.04,,
400,0.039,,
401,0.039,,
402,0.041,,
403,0.043,,
404,0.043,,
405,0.042,,
406,0.041,,
407,0.041,,
408,0.04,,
409,0.039,,
410,0.039,,
411,0.039,,
412,0.038,,
413,0.038,,
414,0.038,,
415,0.038,,
416,0.037,,
417,0.037,,
418,0.036,,
419,0.034,,
420,0.033,,
421,0.032,,
422,0.032,,
423,0.031,,
424,0.031,,
425,0.031,,
426,0.031,,
427,0.032,,
428,0.032,,
429,0.031,,
430,0.03,,
431,0.03,,
432,0.03,,
433,0.029,,
434,0.029,,
435,0.029,,
436,0.029,,
437,0.029,,
438,0.028,,
439,0.028,,
440,0.028,,
441,0.027,,
442,0.026,,
443,0.026,,
444,0.026,,
445,0.026,,
446,0.026,,
447,0.025,,
448,0.025,,
449,0.024,,
450,0.024,,
451,0.024,,
452,0.024,,
453,0.023,,
454,0.024,,
455,0.024,,
456,0.024,,
457,0.024,,
458,0.023,,
459,0.023,,
460,0.022,,
461,0.021,,
462,0.022,,
463,0.022,,
464,0.022,,
465,0.021,,
466,0.021,,
467,0.02,,
468,0.02,,
469,0.019,,
470,0.018,,
471,0.019,,
472,0.019,,
473,0.02,,
474,0.02,,
475,0.019,,
476,0.019,,
477,0.018,,
478,0.017,,
479,0.017,,
480,0.017,,
481,0.017,,
482,0.017,,
483,0.017,,
484,0.017,,
485,0.017,,
486,0.017,,
487,0.017,,
488,0.016,,
489,0.016,,
490,0.015,,
491,0.015,,
492,0.015,,
493,0.015,,
494,0.015,,
495,0.015,,
496,0.015,,
497,0.016,,
498,0.015,,
499,0.016,,
500,0.016,,
501,0.015,,
502,0.015,,
503,0.015,,
504,0.015,,
505,0.014,,
506,0.014,,
507,0.013,,
508,0.013,,
509,0.015,,
510,0.015,,
511,0.015,,
512,0.014,,
513,0.014,,
514,0.015,,
515,0.015,,
516,0.014,,
517,0.013,,
518,0.012,,
519,0.012,,
520,0.012,,
521,0.012,,
522,0.012,,
523,0.013,,
524,0.013,,
525,0.012,,
526,0.012,,
527,0.011,,
528,0.011,,
529,0.011,,
530,0.011,,
531,0.011,,
532,0.011,,
533,0.011,,
534,0.011,,
535,0.01,,
536,0.01,,
537,0.01,,
538,0.011,,
539,0.012,,
540,0.012,,
541,0.011,,
542,0.01,,
543,0.01,,
544,0.009,,
545,0.009,,
546,0.009,,
547,0.01,,
548,0.01,,
549,0.01,,
550,0.009,,
551,0.009,,
552,0.008,,
553,0.009,,
554,0.009,,
555,0.008,,
556,0.009,,
557,0.009,,
558,0.009,,
559,0.008,,
560,0.007,,
561,0.008,,
562,0.008,,
563,0.008,,
564,0.007,,
565,0.007,,
566,0.007,,
567,0.007,,
568,0.008,,
569,0.007,,
570,0.006,,
571,0.006,,
572,0.007,,
573,0.007,,
574,0.007,,
575,0.006,,
576,0.006,,
577,0.006,,
578,0.007,,
579,0.008,,
580,0.008,,
581,0.007,,
582,0.006,,
583,0.007,,
584,0.007,,
585,0.006,,
586,0.004,,
587,0.005,,
588,0.006,,
589,0.008,,
590,0.007,,
591,0.006,,
592,0.005,,
593,0.005,,
594,0.006,,
595,0.005,,
596,0.005,,
597,0.006,,
598,0.006,,
599,0.005,,
600,0.007,,
601,0.007,,
602,0.007,,
603,0.006,,
604,0.006,,
605,0.007,,
606,0.006,,
607,0.007,,
608,0.007,,
609,0.007,,
610,0.007,,
611,0.006,,
612,0.007,,
613,0.007,,
614,0.006,,
615,0.005,,
616,0.004,,
617,0.005,,
618,0.006,,
619,0.007,,
620,0.006,,
621,0.005,,
622,0.004,,
623,0.005,,
624,0.005,,
625,0.005,,
626,0.005,,
627,0.006,,
628,0.006,,
629,0.006,,
630,0.005,,
631,0.005,,
632,0.005,,
633,0.005,,
634,0.005,,
635,0.005,,
636,0.006,,
637,0.005,,
638,0.004,,
639,0.005,,
640,0.007,,
641,0.004,,
642,0.003,,
643,0.004,,
644,0.005,,
645,0.004,,
646,0.004,,
647,0.004,,
648,0.005,,
649,0.005,,
650,0.005,,
651,0.005,,
652,0.005,,
653,0.004,,
654,0.004,,
655,0.005,,
656,0.004,,
657,0.004,,
658,0.002,,
659,0.002,,
660,0.004,,
661,0.005,,
662,0.003,,
663,0.003,,
664,0.004,,
665,0.004,,
666,0.003,,
667,0.003,,
668,0.002,,
669,0.002,,
670,0.002,,
671,0.003,,
672,0.003,,
673,0.003,,
674,0.003,,
675,0.004,,
676,0.005,,
677,0.005,,
678,0.005,,
679,0.004,,
680,0.003,,
681,0.003,,
682,0.002,,
683,0.001,,
684,0.001,,
685,0.002,,
686,0.003,,
687,0.004,,
688,0.004,,
689,0.003,,
690,0.001,,
691,0.002,,
692,0.001,,
693,0.001,,
694,0.001,,
695,0.003,,
696,0.003,,
697,0.003,,
698,0.003,,
699,0.003,,
700,0.002,,
701,0,,
702,0,,
703,0,,
704,0.002,,
705,0.003,,
706,0.002,,
707,0.003,,
708,0.004,,
709,0.004,,
710,0.005,,
711,0.003,,
712,0.002,,
713,0.001,,
714,0.001,,
715,0.003,,
716,0.003,,
717,0.003,,
718,0.002,,
719,0.002,,
720,0.003,,
721,0.003,,
722,0.004,,
723,0.004,,
724,0.004,,
725,0.004,,
726,0.005,,
727,0.004,,
728,0.003,,
729,0.003,,
730,0.004,,
731,0.003,,
732,0.001,,
733,0.002,,
734,0.004,,
735,0.002,,
736,0,,
737,-0.001,,
738,0,,
739,0.002,,
740,0.001,,
741,0.001,,
742,0.001,,
743,0.003,,
744,0.002,,
745,0.003,,
746,0.002,,
747,0.001,,
748,0,,
749,-0.001,,
750,0,,
751,-0.002,,
752,-0.001,,
753,-0.001,,
754,0.002,,
755,0.003,,
756,0.004,,
757,0.004,,
758,0.002,,
759,0.002,,
760,0.001,,
761,0,,
762,-0.001,,
763,0.001,,
764,0.001,,
765,0,,
766,-0.001,,
767,0.001,,
768,0.001,,
769,0.004,,
770,0.003,,
771,0,,
772,-0.001,,
773,0.002,,
774,0.002,,
775,0.004,,
776,0.004,,
777,0.004,,
778,0.005,,
779,0.007,,
780,0.003,,
781,-0.001,,
782,-0.001,,
783,0.003,,
784,0.007,,
785,0.007,,
786,0.005,,
787,0.004,,
788,0.006,,
789,0.008,,
790,0.007,,
791,0.002,,
792,0.001,,
793,-0.001,,
794,-0.001,,
795,-0.004,,
796,-0.003,,
797,-0.003,,
798,-0.001,,
799,0.003,,
800,0.004,,
801,0.006,,
802,0.004,,
803,0.003,,
804,-0.001,,
805,-0.003,,
806,0,,
807,0.005,,
808,0,,
809,0,,
810,-0.001,,
811,0,,
812,-0.003,,
813,-0.001,,
814,0.001,,
815,0.003,,
816,0.001,,
817,-0.002,,
818,-0.002,,
819,0,,
820,0.003,,
821,0.003,,
822,0.004,,
823,0.004,,
824,0.004,,
825,0.004,,
826,0.003,,
827,0.001,,
828,0.003,,
829,0.005,,
830,0.003,,
831,0.002,,
832,0.003,,
833,0.007,,
834,0.008,,
835,0.005,,
836,0.001,,
837,0.001,,
838,0.006,,
839,0.006,,
840,0.005,,