Wavelength (nm),Absorbance,Title,Time
190,0.421,3L_24sept2015,10/15/2015 10:32:38 AM
191,0.441,,
192,-0.025,,
193,-0.22,,
194,-0.214,,
195,-0.035,,
196,0.315,,
197,0.194,,
198,0.051,,
199,-0.508,,
200,-0.764,,
201,-0.591,,
202,-0.395,,
203,-0.324,,
204,-0.184,,
205,-0.373,,
206,-0.611,,
207,-0.288,,
208,0.069,,
209,0.478,,
210,0.275,,
211,-0.054,,
212,-0.204,,
213,-0.083,,
214,-0.124,,
215,0.003,,
216,0.017,,
217,-0.038,,
218,0.144,,
219,0.242,,
220,0.298,,
221,0.266,,
222,0.267,,
223,0.277,,
224,0.282,,
225,0.296,,
226,0.29,,
227,0.282,,
228,0.286,,
229,0.284,,
230,0.283,,
231,0.277,,
232,0.269,,
233,0.262,,
234,0.259,,
235,0.255,,
236,0.251,,
237,0.246,,
238,0.243,,
239,0.24,,
240,0.234,,
241,0.232,,
242,0.23,,
243,0.23,,
244,0.227,,
245,0.223,,
246,0.223,,
247,0.224,,
248,0.221,,
249,0.218,,
250,0.214,,
251,0.213,,
252,0.21,,
253,0.207,,
254,0.203,,
255,0.201,,
256,0.2,,
257,0.2,,
258,0.2,,
259,0.2,,
260,0.2,,
261,0.197,,
262,0.194,,
263,0.192,,
264,0.191,,
265,0.189,,
266,0.188,,
267,0.185,,
268,0.183,,
269,0.182,,
270,0.181,,
271,0.18,,
272,0.179,,
273,0.177,,
274,0.176,,
275,0.173,,
276,0.17,,
277,0.168,,
278,0.166,,
279,0.165,,
280,0.163,,
281,0.161,,
282,0.158,,
283,0.156,,
284,0.154,,
285,0.152,,
286,0.149,,
287,0.147,,
288,0.145,,
289,0.144,,
290,0.141,,
291,0.138,,
292,0.136,,
293,0.135,,
294,0.134,,
295,0.132,,
296,0.129,,
297,0.128,,
298,0.126,,
299,0.124,,
300,0.122,,
301,0.12,,
302,0.119,,
303,0.118,,
304,0.117,,
305,0.115,,
306,0.112,,
307,0.11,,
308,0.109,,
309,0.109,,
310,0.108,,
311,0.106,,
312,0.104,,
313,0.103,,
314,0.101,,
315,0.101,,
316,0.1,,
317,0.098,,
318,0.097,,
319,0.094,,
320,0.092,,
321,0.092,,
322,0.091,,
323,0.09,,
324,0.089,,
325,0.087,,
326,0.086,,
327,0.085,,
328,0.084,,
329,0.084,,
330,0.082,,
331,0.081,,
332,0.079,,
333,0.078,,
334,0.077,,
335,0.076,,
336,0.074,,
337,0.073,,
338,0.073,,
339,0.073,,
340,0.072,,
341,0.071,,
342,0.069,,
343,0.068,,
344,0.067,,
345,0.067,,
346,0.066,,
347,0.065,,
348,0.065,,
349,0.064,,
350,0.062,,
351,0.061,,
352,0.06,,
353,0.06,,
354,0.059,,
355,0.058,,
356,0.058,,
357,0.058,,
358,0.057,,
359,0.056,,
360,0.054,,
361,0.055,,
362,0.054,,
363,0.053,,
364,0.052,,
365,0.051,,
366,0.052,,
367,0.05,,
368,0.05,,
369,0.049,,
370,0.049,,
371,0.048,,
372,0.047,,
373,0.047,,
374,0.047,,
375,0.046,,
376,0.045,,
377,0.044,,
378,0.043,,
379,0.043,,
380,0.042,,
381,0.041,,
382,0.041,,
383,0.041,,
384,0.04,,
385,0.039,,
386,0.039,,
387,0.038,,
388,0.038,,
389,0.037,,
390,0.037,,
391,0.038,,
392,0.038,,
393,0.038,,
394,0.037,,
395,0.036,,
396,0.035,,
397,0.034,,
398,0.033,,
399,0.032,,
400,0.032,,
401,0.031,,
402,0.032,,
403,0.032,,
404,0.033,,
405,0.033,,
406,0.032,,
407,0.032,,
408,0.031,,
409,0.031,,
410,0.031,,
411,0.03,,
412,0.028,,
413,0.027,,
414,0.028,,
415,0.03,,
416,0.03,,
417,0.029,,
418,0.028,,
419,0.027,,
420,0.026,,
421,0.026,,
422,0.025,,
423,0.025,,
424,0.025,,
425,0.024,,
426,0.024,,
427,0.023,,
428,0.024,,
429,0.024,,
430,0.025,,
431,0.025,,
432,0.024,,
433,0.024,,
434,0.024,,
435,0.023,,
436,0.023,,
437,0.022,,
438,0.022,,
439,0.022,,
440,0.022,,
441,0.021,,
442,0.02,,
443,0.019,,
444,0.02,,
445,0.022,,
446,0.021,,
447,0.02,,
448,0.019,,
449,0.019,,
450,0.019,,
451,0.019,,
452,0.019,,
453,0.02,,
454,0.019,,
455,0.018,,
456,0.019,,
457,0.019,,
458,0.018,,
459,0.018,,
460,0.017,,
461,0.017,,
462,0.017,,
463,0.016,,
464,0.015,,
465,0.015,,
466,0.016,,
467,0.016,,
468,0.016,,
469,0.014,,
470,0.013,,
471,0.013,,
472,0.015,,
473,0.015,,
474,0.015,,
475,0.014,,
476,0.014,,
477,0.014,,
478,0.014,,
479,0.014,,
480,0.014,,
481,0.013,,
482,0.013,,
483,0.013,,
484,0.014,,
485,0.014,,
486,0.013,,
487,0.013,,
488,0.013,,
489,0.012,,
490,0.011,,
491,0.011,,
492,0.011,,
493,0.012,,
494,0.012,,
495,0.011,,
496,0.011,,
497,0.011,,
498,0.012,,
499,0.012,,
500,0.011,,
501,0.011,,
502,0.011,,
503,0.012,,
504,0.012,,
505,0.011,,
506,0.009,,
507,0.009,,
508,0.009,,
509,0.01,,
510,0.01,,
511,0.01,,
512,0.011,,
513,0.011,,
514,0.011,,
515,0.009,,
516,0.009,,
517,0.009,,
518,0.009,,
519,0.009,,
520,0.009,,
521,0.009,,
522,0.008,,
523,0.007,,
524,0.008,,
525,0.008,,
526,0.008,,
527,0.008,,
528,0.008,,
529,0.008,,
530,0.008,,
531,0.008,,
532,0.007,,
533,0.007,,
534,0.007,,
535,0.007,,
536,0.008,,
537,0.008,,
538,0.007,,
539,0.007,,
540,0.007,,
541,0.006,,
542,0.006,,
543,0.006,,
544,0.007,,
545,0.007,,
546,0.006,,
547,0.006,,
548,0.006,,
549,0.006,,
550,0.005,,
551,0.004,,
552,0.004,,
553,0.005,,
554,0.006,,
555,0.006,,
556,0.006,,
557,0.006,,
558,0.006,,
559,0.006,,
560,0.006,,
561,0.005,,
562,0.005,,
563,0.006,,
564,0.006,,
565,0.004,,
566,0.004,,
567,0.003,,
568,0.003,,
569,0.004,,
570,0.004,,
571,0.004,,
572,0.004,,
573,0.004,,
574,0.004,,
575,0.004,,
576,0.004,,
577,0.003,,
578,0.003,,
579,0.004,,
580,0.003,,
581,0.004,,
582,0.003,,
583,0.003,,
584,0.004,,
585,0.004,,
586,0.004,,
587,0.003,,
588,0.004,,
589,0.003,,
590,0.002,,
591,0.003,,
592,0.003,,
593,0.003,,
594,0.003,,
595,0.003,,
596,0.004,,
597,0.003,,
598,0.003,,
599,0.003,,
600,0.002,,
601,0.003,,
602,0.003,,
603,0.003,,
604,0.004,,
605,0.002,,
606,0.003,,
607,0.003,,
608,0.005,,
609,0.005,,
610,0.003,,
611,0.002,,
612,0.003,,
613,0.003,,
614,0.002,,
615,0.001,,
616,0.002,,
617,0.002,,
618,0.001,,
619,0.001,,
620,0.002,,
621,0.002,,
622,0.001,,
623,0.002,,
624,0.003,,
625,0.002,,
626,0,,
627,0.001,,
628,0.001,,
629,0.002,,
630,0.002,,
631,0.001,,
632,0.002,,
633,0.001,,
634,0.001,,
635,0.001,,
636,0.001,,
637,0.001,,
638,0.002,,
639,0.003,,
640,0.003,,
641,0.002,,
642,0.002,,
643,0.002,,
644,0.002,,
645,0.001,,
646,0,,
647,0,,
648,0,,
649,0,,
650,0,,
651,0,,
652,0.001,,
653,0.002,,
654,0.001,,
655,0.001,,
656,0,,
657,-0.001,,
658,0,,
659,0.001,,
660,0.001,,
661,0,,
662,0,,
663,0.001,,
664,0.001,,
665,0,,
666,0,,
667,-0.001,,
668,-0.001,,
669,-0.001,,
670,-0.001,,
671,0,,
672,-0.001,,
673,0,,
674,0.001,,
675,0.002,,
676,0.001,,
677,0,,
678,0,,
679,0,,
680,-0.001,,
681,0,,
682,0,,
683,-0.001,,
684,-0.002,,
685,0,,
686,0.001,,
687,-0.001,,
688,-0.001,,
689,0,,
690,0,,
691,-0.001,,
692,0,,
693,0,,
694,-0.002,,
695,-0.002,,
696,0,,
697,0.001,,
698,0.002,,
699,0.001,,
700,0,,
701,-0.001,,
702,-0.002,,
703,-0.001,,
704,0,,
705,0.001,,
706,0.001,,
707,-0.001,,
708,-0.002,,
709,-0.002,,
710,-0.001,,
711,-0.001,,
712,-0.001,,
713,-0.001,,
714,-0.001,,
715,-0.002,,
716,-0.002,,
717,-0.003,,
718,-0.002,,
719,0,,
720,0.002,,
721,0.001,,
722,-0.002,,
723,-0.004,,
724,-0.003,,
725,-0.002,,
726,-0.002,,
727,-0.002,,
728,-0.002,,
729,-0.002,,
730,-0.002,,
731,-0.002,,
732,-0.002,,
733,-0.002,,
734,-0.002,,
735,-0.003,,
736,-0.001,,
737,0.001,,
738,-0.001,,
739,-0.003,,
740,0,,
741,0.001,,
742,-0.003,,
743,-0.007,,
744,-0.003,,
745,0.001,,
746,0,,
747,-0.002,,
748,-0.004,,
749,-0.003,,
750,0,,
751,0,,
752,0,,
753,-0.002,,
754,-0.002,,
755,-0.001,,
756,-0.001,,
757,-0.004,,
758,-0.004,,
759,0.001,,
760,0.001,,
761,-0.001,,
762,-0.005,,
763,-0.004,,
764,-0.004,,
765,-0.003,,
766,-0.002,,
767,-0.002,,
768,-0.003,,
769,-0.005,,
770,-0.003,,
771,-0.002,,
772,-0.003,,
773,-0.003,,
774,-0.002,,
775,-0.003,,
776,-0.002,,
777,-0.001,,
778,-0.004,,
779,-0.007,,
780,-0.005,,
781,-0.002,,
782,-0.002,,
783,-0.001,,
784,-0.002,,
785,0,,
786,0,,
787,0.002,,
788,0.004,,
789,0.004,,
790,-0.001,,
791,-0.009,,
792,-0.007,,
793,-0.005,,
794,0.001,,
795,0.001,,
796,-0.001,,
797,-0.003,,
798,-0.002,,
799,0.004,,
800,0.004,,
801,0,,
802,-0.002,,
803,0.002,,
804,0.004,,
805,0.002,,
806,-0.002,,
807,-0.003,,
808,-0.007,,
809,-0.009,,
810,-0.007,,
811,-0.007,,
812,-0.008,,
813,-0.007,,
814,-0.004,,
815,0.002,,
816,-0.002,,
817,0.001,,
818,0.004,,
819,0.007,,
820,-0.002,,
821,-0.006,,
822,-0.004,,
823,-0.002,,
824,-0.001,,
825,0,,
826,0,,
827,0.001,,
828,0,,
829,0.001,,
830,-0.002,,
831,-0.001,,
832,-0.002,,
833,0.004,,
834,0.004,,
835,0.002,,
836,-0.002,,
837,0,,
838,-0.002,,
839,-0.011,,
840,-0.011,,