Wavelength (nm),Absorbance,Title,Time
220,0.265,9S_22sept2015,10/15/2015 11:02:41 AM
221,0.268,,
222,0.244,,
223,0.242,,
224,0.236,,
225,0.24,,
226,0.244,,
227,0.246,,
228,0.242,,
229,0.232,,
230,0.229,,
231,0.217,,
232,0.21,,
233,0.207,,
234,0.203,,
235,0.202,,
236,0.196,,
237,0.19,,
238,0.185,,
239,0.179,,
240,0.178,,
241,0.178,,
242,0.179,,
243,0.178,,
244,0.175,,
245,0.173,,
246,0.173,,
247,0.174,,
248,0.172,,
249,0.168,,
250,0.165,,
251,0.163,,
252,0.164,,
253,0.164,,
254,0.163,,
255,0.161,,
256,0.159,,
257,0.157,,
258,0.156,,
259,0.156,,
260,0.155,,
261,0.154,,
262,0.151,,
263,0.149,,
264,0.147,,
265,0.145,,
266,0.144,,
267,0.144,,
268,0.143,,
269,0.142,,
270,0.14,,
271,0.138,,
272,0.137,,
273,0.133,,
274,0.131,,
275,0.129,,
276,0.128,,
277,0.127,,
278,0.125,,
279,0.124,,
280,0.121,,
281,0.12,,
282,0.117,,
283,0.115,,
284,0.113,,
285,0.112,,
286,0.109,,
287,0.107,,
288,0.106,,
289,0.105,,
290,0.104,,
291,0.102,,
292,0.1,,
293,0.099,,
294,0.097,,
295,0.096,,
296,0.096,,
297,0.096,,
298,0.094,,
299,0.09,,
300,0.088,,
301,0.088,,
302,0.088,,
303,0.086,,
304,0.084,,
305,0.082,,
306,0.081,,
307,0.08,,
308,0.079,,
309,0.078,,
310,0.077,,
311,0.076,,
312,0.074,,
313,0.074,,
314,0.073,,
315,0.072,,
316,0.071,,
317,0.07,,
318,0.069,,
319,0.067,,
320,0.067,,
321,0.066,,
322,0.066,,
323,0.065,,
324,0.063,,
325,0.062,,
326,0.06,,
327,0.059,,
328,0.059,,
329,0.059,,
330,0.059,,
331,0.058,,
332,0.056,,
333,0.055,,
334,0.055,,
335,0.054,,
336,0.054,,
337,0.053,,
338,0.052,,
339,0.051,,
340,0.05,,
341,0.051,,
342,0.05,,
343,0.048,,
344,0.046,,
345,0.046,,
346,0.046,,
347,0.047,,
348,0.046,,
349,0.045,,
350,0.044,,
351,0.043,,
352,0.042,,
353,0.042,,
354,0.041,,
355,0.04,,
356,0.039,,
357,0.04,,
358,0.04,,
359,0.04,,
360,0.038,,
361,0.038,,
362,0.037,,
363,0.036,,
364,0.036,,
365,0.035,,
366,0.035,,
367,0.034,,
368,0.034,,
369,0.034,,
370,0.033,,
371,0.033,,
372,0.031,,
373,0.031,,
374,0.03,,
375,0.028,,
376,0.028,,
377,0.028,,
378,0.029,,
379,0.029,,
380,0.028,,
381,0.027,,
382,0.027,,
383,0.026,,
384,0.025,,
385,0.024,,
386,0.024,,
387,0.025,,
388,0.025,,
389,0.023,,
390,0.023,,
391,0.024,,
392,0.024,,
393,0.024,,
394,0.025,,
395,0.023,,
396,0.021,,
397,0.019,,
398,0.019,,
399,0.019,,
400,0.019,,
401,0.018,,
402,0.019,,
403,0.019,,
404,0.019,,
405,0.019,,
406,0.019,,
407,0.019,,
408,0.018,,
409,0.019,,
410,0.017,,
411,0.017,,
412,0.017,,
413,0.017,,
414,0.018,,
415,0.017,,
416,0.017,,
417,0.016,,
418,0.015,,
419,0.015,,
420,0.015,,
421,0.014,,
422,0.014,,
423,0.013,,
424,0.013,,
425,0.012,,
426,0.012,,
427,0.013,,
428,0.013,,
429,0.013,,
430,0.012,,
431,0.012,,
432,0.012,,
433,0.012,,
434,0.013,,
435,0.013,,
436,0.012,,
437,0.011,,
438,0.01,,
439,0.011,,
440,0.011,,
441,0.011,,
442,0.011,,
443,0.01,,
444,0.01,,
445,0.009,,
446,0.009,,
447,0.009,,
448,0.009,,
449,0.009,,
450,0.009,,
451,0.009,,
452,0.009,,
453,0.009,,
454,0.008,,
455,0.008,,
456,0.008,,
457,0.009,,
458,0.008,,
459,0.007,,
460,0.007,,
461,0.008,,
462,0.008,,
463,0.008,,
464,0.008,,
465,0.008,,
466,0.008,,
467,0.007,,
468,0.007,,
469,0.007,,
470,0.006,,
471,0.006,,
472,0.006,,
473,0.006,,
474,0.007,,
475,0.006,,
476,0.006,,
477,0.005,,
478,0.005,,
479,0.006,,
480,0.006,,
481,0.005,,
482,0.006,,
483,0.006,,
484,0.007,,
485,0.007,,
486,0.006,,
487,0.005,,
488,0.005,,
489,0.005,,
490,0.005,,
491,0.005,,
492,0.005,,
493,0.005,,
494,0.005,,
495,0.004,,
496,0.004,,
497,0.005,,
498,0.005,,
499,0.006,,
500,0.005,,
501,0.005,,
502,0.005,,
503,0.004,,
504,0.005,,
505,0.004,,
506,0.004,,
507,0.003,,
508,0.003,,
509,0.004,,
510,0.004,,
511,0.004,,
512,0.004,,
513,0.004,,
514,0.004,,
515,0.004,,
516,0.003,,
517,0.003,,
518,0.003,,
519,0.004,,
520,0.004,,
521,0.003,,
522,0.002,,
523,0.001,,
524,0.002,,
525,0.002,,
526,0.002,,
527,0.002,,
528,0.002,,
529,0.002,,
530,0.002,,
531,0.002,,
532,0.002,,
533,0.002,,
534,0.002,,
535,0.002,,
536,0.002,,
537,0.002,,
538,0.002,,
539,0.001,,
540,0.002,,
541,0.002,,
542,0.002,,
543,0.002,,
544,0.002,,
545,0.002,,
546,0.001,,
547,0.002,,
548,0.002,,
549,0.001,,
550,0.001,,
551,0.001,,
552,0.001,,
553,0.002,,
554,0.001,,
555,0.002,,
556,0.002,,
557,0.002,,
558,0.002,,
559,0.001,,
560,0.001,,
561,0.001,,
562,0.003,,
563,0.002,,
564,0.001,,
565,0,,
566,0,,
567,0.002,,
568,0.003,,
569,0.002,,
570,0.001,,
571,0.001,,
572,0.001,,
573,0.001,,
574,0.001,,
575,0.001,,
576,0,,
577,0.001,,
578,0.001,,
579,0.001,,
580,-0.001,,
581,-0.002,,
582,0,,
583,0.002,,
584,0.001,,
585,0.001,,
586,0,,
587,0,,
588,0.001,,
589,0.001,,
590,0.001,,
591,0,,
592,-0.001,,
593,-0.001,,
594,-0.001,,
595,-0.001,,
596,-0.001,,
597,0,,
598,-0.001,,
599,-0.001,,
600,0,,
601,0.001,,
602,0.002,,
603,0.001,,
604,0,,
605,0,,
606,0,,
607,0.001,,
608,0.001,,
609,0.001,,
610,-0.001,,
611,-0.001,,
612,-0.001,,
613,-0.001,,
614,-0.001,,
615,0,,
616,0.001,,
617,0.002,,
618,0.001,,
619,-0.001,,
620,-0.002,,
621,-0.001,,
622,-0.001,,
623,0,,
624,0.001,,
625,0.001,,
626,-0.001,,
627,0,,
628,0,,
629,-0.001,,
630,-0.002,,
631,0,,
632,0,,
633,0.001,,
634,0,,
635,0,,
636,0,,
637,0,,
638,0,,
639,0,,
640,0,,
641,0.001,,
642,0.001,,
643,0,,
644,-0.001,,
645,-0.002,,
646,-0.001,,
647,-0.001,,
648,0.001,,
649,0,,
650,-0.001,,
651,-0.001,,
652,-0.001,,
653,-0.001,,
654,-0.002,,
655,-0.002,,
656,-0.002,,
657,-0.002,,
658,-0.002,,
659,-0.002,,
660,-0.001,,
661,0.001,,
662,0,,
663,0,,
664,-0.001,,
665,-0.001,,
666,-0.001,,
667,-0.001,,
668,-0.002,,
669,-0.001,,
670,-0.001,,
671,-0.001,,
672,-0.001,,
673,-0.002,,
674,-0.002,,
675,-0.001,,
676,0,,
677,0.001,,
678,0,,
679,-0.001,,
680,-0.003,,
681,-0.003,,
682,-0.003,,
683,-0.003,,
684,-0.003,,
685,-0.003,,
686,-0.002,,
687,-0.002,,
688,-0.001,,
689,-0.001,,
690,-0.001,,
691,-0.002,,
692,-0.002,,
693,-0.002,,
694,-0.001,,
695,-0.001,,
696,-0.002,,
697,-0.001,,
698,-0.002,,
699,-0.003,,
700,-0.003,,
701,-0.002,,
702,-0.003,,
703,-0.003,,
704,-0.003,,
705,-0.003,,
706,-0.001,,
707,0,,
708,-0.001,,
709,-0.001,,
710,-0.001,,
711,-0.001,,
712,-0.003,,
713,-0.002,,
714,0,,
715,-0.001,,
716,-0.002,,
717,-0.001,,
718,0,,
719,0.001,,
720,0,,
721,-0.001,,
722,-0.001,,
723,-0.001,,
724,-0.002,,
725,-0.002,,
726,-0.001,,
727,-0.002,,
728,-0.002,,
729,-0.002,,
730,-0.001,,
731,-0.003,,
732,-0.002,,
733,-0.002,,
734,-0.002,,
735,-0.001,,
736,-0.003,,
737,-0.004,,
738,-0.002,,
739,0.001,,
740,-0.001,,
741,-0.002,,
742,-0.001,,
743,-0.001,,
744,-0.001,,
745,-0.003,,
746,-0.002,,
747,0.001,,
748,0.003,,
749,0.001,,
750,0,,