Wavelength (nm),Absorbance,Title,Time
190,0.098,8S_24sept2015,10/15/2015 10:33:06 AM
191,0.14,,
192,-0.188,,
193,-0.508,,
194,-0.571,,
195,-0.209,,
196,0.347,,
197,0.428,,
198,-0.024,,
199,-0.384,,
200,-0.384,,
201,-0.175,,
202,-0.188,,
203,-0.426,,
204,-0.259,,
205,-0.425,,
206,-0.348,,
207,-0.173,,
208,0.088,,
209,0.407,,
210,0.44,,
211,0.309,,
212,-0.123,,
213,-0.288,,
214,-0.334,,
215,0.09,,
216,0.18,,
217,0.064,,
218,0.085,,
219,0.089,,
220,0.207,,
221,0.175,,
222,0.167,,
223,0.154,,
224,0.163,,
225,0.172,,
226,0.173,,
227,0.179,,
228,0.176,,
229,0.175,,
230,0.172,,
231,0.166,,
232,0.162,,
233,0.161,,
234,0.161,,
235,0.16,,
236,0.159,,
237,0.154,,
238,0.152,,
239,0.148,,
240,0.145,,
241,0.145,,
242,0.144,,
243,0.143,,
244,0.141,,
245,0.139,,
246,0.14,,
247,0.141,,
248,0.14,,
249,0.138,,
250,0.136,,
251,0.134,,
252,0.133,,
253,0.13,,
254,0.129,,
255,0.129,,
256,0.129,,
257,0.127,,
258,0.126,,
259,0.126,,
260,0.127,,
261,0.126,,
262,0.124,,
263,0.122,,
264,0.121,,
265,0.12,,
266,0.119,,
267,0.117,,
268,0.116,,
269,0.115,,
270,0.114,,
271,0.114,,
272,0.112,,
273,0.11,,
274,0.109,,
275,0.108,,
276,0.106,,
277,0.105,,
278,0.102,,
279,0.101,,
280,0.099,,
281,0.098,,
282,0.096,,
283,0.095,,
284,0.094,,
285,0.092,,
286,0.09,,
287,0.089,,
288,0.087,,
289,0.086,,
290,0.085,,
291,0.083,,
292,0.082,,
293,0.081,,
294,0.08,,
295,0.079,,
296,0.078,,
297,0.078,,
298,0.077,,
299,0.075,,
300,0.073,,
301,0.071,,
302,0.071,,
303,0.07,,
304,0.069,,
305,0.068,,
306,0.066,,
307,0.065,,
308,0.065,,
309,0.065,,
310,0.063,,
311,0.062,,
312,0.061,,
313,0.061,,
314,0.061,,
315,0.06,,
316,0.059,,
317,0.057,,
318,0.056,,
319,0.054,,
320,0.053,,
321,0.054,,
322,0.054,,
323,0.053,,
324,0.051,,
325,0.05,,
326,0.05,,
327,0.049,,
328,0.048,,
329,0.047,,
330,0.047,,
331,0.047,,
332,0.046,,
333,0.046,,
334,0.045,,
335,0.044,,
336,0.042,,
337,0.041,,
338,0.042,,
339,0.042,,
340,0.043,,
341,0.041,,
342,0.04,,
343,0.039,,
344,0.038,,
345,0.038,,
346,0.038,,
347,0.038,,
348,0.037,,
349,0.036,,
350,0.036,,
351,0.035,,
352,0.034,,
353,0.033,,
354,0.033,,
355,0.033,,
356,0.033,,
357,0.033,,
358,0.033,,
359,0.032,,
360,0.031,,
361,0.032,,
362,0.03,,
363,0.03,,
364,0.029,,
365,0.029,,
366,0.029,,
367,0.028,,
368,0.028,,
369,0.027,,
370,0.026,,
371,0.026,,
372,0.026,,
373,0.024,,
374,0.024,,
375,0.024,,
376,0.025,,
377,0.025,,
378,0.024,,
379,0.023,,
380,0.021,,
381,0.021,,
382,0.021,,
383,0.021,,
384,0.021,,
385,0.02,,
386,0.021,,
387,0.022,,
388,0.022,,
389,0.02,,
390,0.019,,
391,0.02,,
392,0.02,,
393,0.019,,
394,0.018,,
395,0.018,,
396,0.018,,
397,0.018,,
398,0.016,,
399,0.015,,
400,0.014,,
401,0.014,,
402,0.015,,
403,0.016,,
404,0.016,,
405,0.016,,
406,0.015,,
407,0.015,,
408,0.014,,
409,0.014,,
410,0.014,,
411,0.013,,
412,0.013,,
413,0.012,,
414,0.013,,
415,0.013,,
416,0.013,,
417,0.013,,
418,0.013,,
419,0.013,,
420,0.012,,
421,0.012,,
422,0.012,,
423,0.012,,
424,0.011,,
425,0.011,,
426,0.011,,
427,0.01,,
428,0.01,,
429,0.01,,
430,0.011,,
431,0.011,,
432,0.011,,
433,0.01,,
434,0.01,,
435,0.01,,
436,0.01,,
437,0.01,,
438,0.01,,
439,0.01,,
440,0.009,,
441,0.009,,
442,0.008,,
443,0.008,,
444,0.008,,
445,0.009,,
446,0.009,,
447,0.008,,
448,0.007,,
449,0.008,,
450,0.008,,
451,0.008,,
452,0.008,,
453,0.008,,
454,0.007,,
455,0.007,,
456,0.007,,
457,0.007,,
458,0.007,,
459,0.006,,
460,0.006,,
461,0.007,,
462,0.007,,
463,0.007,,
464,0.006,,
465,0.006,,
466,0.006,,
467,0.006,,
468,0.006,,
469,0.006,,
470,0.006,,
471,0.005,,
472,0.006,,
473,0.005,,
474,0.005,,
475,0.004,,
476,0.004,,
477,0.005,,
478,0.005,,
479,0.005,,
480,0.005,,
481,0.004,,
482,0.004,,
483,0.005,,
484,0.005,,
485,0.006,,
486,0.005,,
487,0.005,,
488,0.005,,
489,0.005,,
490,0.004,,
491,0.004,,
492,0.004,,
493,0.005,,
494,0.004,,
495,0.004,,
496,0.003,,
497,0.003,,
498,0.004,,
499,0.004,,
500,0.003,,
501,0.003,,
502,0.004,,
503,0.005,,
504,0.004,,
505,0.003,,
506,0.003,,
507,0.004,,
508,0.004,,
509,0.003,,
510,0.002,,
511,0.002,,
512,0.003,,
513,0.003,,
514,0.003,,
515,0.002,,
516,0.002,,
517,0.002,,
518,0.002,,
519,0.003,,
520,0.003,,
521,0.003,,
522,0.002,,
523,0.002,,
524,0.002,,
525,0.002,,
526,0.002,,
527,0.002,,
528,0.003,,
529,0.003,,
530,0.003,,
531,0.003,,
532,0.003,,
533,0.003,,
534,0.003,,
535,0.003,,
536,0.003,,
537,0.002,,
538,0.001,,
539,0.002,,
540,0.002,,
541,0.002,,
542,0.002,,
543,0.002,,
544,0.002,,
545,0.002,,
546,0.002,,
547,0.001,,
548,0.001,,
549,0.002,,
550,0,,
551,0.001,,
552,0.001,,
553,0.002,,
554,0.002,,
555,0.002,,
556,0.003,,
557,0.002,,
558,0.002,,
559,0.002,,
560,0.001,,
561,0.001,,
562,0.001,,
563,0.002,,
564,0.002,,
565,0,,
566,0,,
567,-0.001,,
568,0,,
569,0,,
570,0,,
571,0,,
572,0.001,,
573,0.001,,
574,0.001,,
575,0,,
576,0,,
577,0,,
578,0,,
579,0.002,,
580,0.001,,
581,0.001,,
582,0.001,,
583,0.001,,
584,0.001,,
585,0,,
586,0,,
587,0.001,,
588,0.001,,
589,0.002,,
590,0.001,,
591,0.001,,
592,0,,
593,0,,
594,0.001,,
595,0,,
596,0.001,,
597,0.001,,
598,0.001,,
599,0.001,,
600,0.001,,
601,0,,
602,0.001,,
603,0,,
604,0.001,,
605,0,,
606,0.001,,
607,0.001,,
608,0.002,,
609,0.002,,
610,0.001,,
611,0.002,,
612,0.001,,
613,0,,
614,0.001,,
615,0.001,,
616,0.001,,
617,0,,
618,0.001,,
619,0.001,,
620,0.001,,
621,0,,
622,0,,
623,0,,
624,0.001,,
625,0,,
626,0,,
627,0,,
628,0,,
629,0,,
630,-0.001,,
631,-0.001,,
632,0,,
633,-0.001,,
634,0,,
635,0,,
636,0.001,,
637,0.001,,
638,0.001,,
639,0.001,,
640,0.002,,
641,0.001,,
642,0,,
643,0,,
644,0,,
645,0.001,,
646,0.001,,
647,0,,
648,0,,
649,-0.001,,
650,-0.001,,
651,-0.001,,
652,0.001,,
653,0.001,,
654,0.001,,
655,0,,
656,0,,
657,-0.002,,
658,-0.001,,
659,0,,
660,0,,
661,0,,
662,0,,
663,0.001,,
664,0.001,,
665,0.001,,
666,0,,
667,-0.001,,
668,0,,
669,-0.001,,
670,-0.001,,
671,0.001,,
672,0.001,,
673,0.001,,
674,0.001,,
675,0.001,,
676,0,,
677,0,,
678,0.001,,
679,0.001,,
680,0,,
681,0,,
682,0,,
683,-0.001,,
684,-0.002,,
685,0,,
686,0,,
687,-0.001,,
688,-0.001,,
689,0.001,,
690,0.001,,
691,-0.001,,
692,0,,
693,0,,
694,-0.001,,
695,-0.001,,
696,0,,
697,0.002,,
698,0.002,,
699,0.001,,
700,-0.001,,
701,-0.001,,
702,-0.001,,
703,0,,
704,0.001,,
705,0.003,,
706,0.002,,
707,0.001,,
708,-0.001,,
709,-0.002,,
710,-0.001,,
711,0,,
712,0,,
713,0.001,,
714,-0.001,,
715,-0.002,,
716,-0.002,,
717,-0.001,,
718,-0.001,,
719,0.001,,
720,0.002,,
721,0.001,,
722,-0.001,,
723,-0.001,,
724,-0.001,,
725,-0.001,,
726,-0.002,,
727,0,,
728,0.002,,
729,0.001,,
730,0,,
731,0.001,,
732,0.002,,
733,0.001,,
734,-0.001,,
735,0,,
736,-0.001,,
737,0.001,,
738,0.001,,
739,0.001,,
740,0.001,,
741,0.001,,
742,-0.002,,
743,-0.004,,
744,-0.002,,
745,0,,
746,0,,
747,-0.001,,
748,-0.002,,
749,-0.002,,
750,0,,
751,-0.001,,
752,0.001,,
753,0,,
754,0,,
755,0,,
756,0,,
757,-0.002,,
758,-0.001,,
759,0.002,,
760,0.001,,
761,-0.001,,
762,-0.002,,
763,-0.001,,
764,-0.001,,
765,-0.002,,
766,-0.001,,
767,0,,
768,-0.001,,
769,-0.004,,
770,-0.003,,
771,-0.001,,
772,-0.001,,
773,-0.001,,
774,-0.003,,
775,-0.004,,
776,0,,
777,0.003,,
778,-0.001,,
779,-0.005,,
780,-0.003,,
781,0.001,,
782,0,,
783,-0.001,,
784,0,,
785,0.002,,
786,0.003,,
787,0.002,,
788,0.003,,
789,0.002,,
790,-0.002,,
791,-0.006,,
792,-0.005,,
793,-0.001,,
794,0.002,,
795,-0.001,,
796,-0.003,,
797,-0.002,,
798,0.002,,
799,0.005,,
800,0.005,,
801,0,,
802,-0.002,,
803,0.002,,
804,0.003,,
805,0.003,,
806,0,,
807,-0.001,,
808,-0.004,,
809,-0.004,,
810,-0.005,,
811,-0.005,,
812,-0.006,,
813,-0.001,,
814,0.003,,
815,0.008,,
816,0.003,,
817,0.004,,
818,0.002,,
819,0.005,,
820,0.002,,
821,0.002,,
822,0,,
823,0.001,,
824,0,,
825,0.001,,
826,0.001,,
827,0.002,,
828,0,,
829,0.001,,
830,0.001,,
831,0.003,,
832,0.003,,
833,0.006,,
834,0.005,,
835,0.004,,
836,0.002,,
837,0.003,,
838,-0.003,,
839,-0.01,,
840,-0.001,,