Wavelength (nm),Absorbance,Title,Time
220,0.29,10LS_22sept2015,10/15/2015 11:01:12 AM
221,0.281,,
222,0.297,,
223,0.279,,
224,0.276,,
225,0.285,,
226,0.287,,
227,0.287,,
228,0.287,,
229,0.283,,
230,0.28,,
231,0.271,,
232,0.263,,
233,0.26,,
234,0.254,,
235,0.251,,
236,0.242,,
237,0.237,,
238,0.234,,
239,0.228,,
240,0.227,,
241,0.226,,
242,0.226,,
243,0.224,,
244,0.22,,
245,0.217,,
246,0.216,,
247,0.215,,
248,0.213,,
249,0.21,,
250,0.205,,
251,0.205,,
252,0.205,,
253,0.203,,
254,0.2,,
255,0.197,,
256,0.197,,
257,0.197,,
258,0.196,,
259,0.195,,
260,0.193,,
261,0.191,,
262,0.189,,
263,0.186,,
264,0.184,,
265,0.183,,
266,0.182,,
267,0.182,,
268,0.18,,
269,0.178,,
270,0.177,,
271,0.176,,
272,0.174,,
273,0.171,,
274,0.168,,
275,0.166,,
276,0.165,,
277,0.163,,
278,0.161,,
279,0.158,,
280,0.156,,
281,0.154,,
282,0.152,,
283,0.15,,
284,0.148,,
285,0.146,,
286,0.144,,
287,0.141,,
288,0.139,,
289,0.136,,
290,0.135,,
291,0.133,,
292,0.132,,
293,0.13,,
294,0.128,,
295,0.127,,
296,0.125,,
297,0.124,,
298,0.121,,
299,0.119,,
300,0.117,,
301,0.116,,
302,0.115,,
303,0.114,,
304,0.113,,
305,0.111,,
306,0.109,,
307,0.107,,
308,0.106,,
309,0.104,,
310,0.103,,
311,0.101,,
312,0.1,,
313,0.099,,
314,0.098,,
315,0.097,,
316,0.096,,
317,0.095,,
318,0.093,,
319,0.091,,
320,0.09,,
321,0.089,,
322,0.089,,
323,0.087,,
324,0.086,,
325,0.084,,
326,0.083,,
327,0.082,,
328,0.081,,
329,0.081,,
330,0.08,,
331,0.079,,
332,0.076,,
333,0.075,,
334,0.074,,
335,0.073,,
336,0.073,,
337,0.073,,
338,0.073,,
339,0.071,,
340,0.07,,
341,0.069,,
342,0.069,,
343,0.066,,
344,0.065,,
345,0.066,,
346,0.066,,
347,0.065,,
348,0.063,,
349,0.062,,
350,0.061,,
351,0.06,,
352,0.061,,
353,0.06,,
354,0.059,,
355,0.058,,
356,0.056,,
357,0.056,,
358,0.055,,
359,0.055,,
360,0.054,,
361,0.054,,
362,0.053,,
363,0.051,,
364,0.05,,
365,0.05,,
366,0.051,,
367,0.051,,
368,0.049,,
369,0.048,,
370,0.047,,
371,0.047,,
372,0.047,,
373,0.046,,
374,0.045,,
375,0.044,,
376,0.043,,
377,0.042,,
378,0.042,,
379,0.043,,
380,0.042,,
381,0.043,,
382,0.042,,
383,0.04,,
384,0.038,,
385,0.037,,
386,0.037,,
387,0.037,,
388,0.036,,
389,0.036,,
390,0.036,,
391,0.036,,
392,0.036,,
393,0.037,,
394,0.037,,
395,0.036,,
396,0.034,,
397,0.031,,
398,0.031,,
399,0.031,,
400,0.03,,
401,0.029,,
402,0.03,,
403,0.03,,
404,0.031,,
405,0.03,,
406,0.03,,
407,0.03,,
408,0.03,,
409,0.03,,
410,0.029,,
411,0.029,,
412,0.028,,
413,0.026,,
414,0.027,,
415,0.028,,
416,0.027,,
417,0.026,,
418,0.026,,
419,0.025,,
420,0.024,,
421,0.024,,
422,0.024,,
423,0.023,,
424,0.022,,
425,0.021,,
426,0.021,,
427,0.022,,
428,0.022,,
429,0.022,,
430,0.021,,
431,0.021,,
432,0.021,,
433,0.021,,
434,0.021,,
435,0.021,,
436,0.021,,
437,0.02,,
438,0.019,,
439,0.019,,
440,0.019,,
441,0.019,,
442,0.019,,
443,0.018,,
444,0.018,,
445,0.018,,
446,0.017,,
447,0.017,,
448,0.017,,
449,0.017,,
450,0.017,,
451,0.016,,
452,0.017,,
453,0.016,,
454,0.016,,
455,0.016,,
456,0.016,,
457,0.016,,
458,0.015,,
459,0.014,,
460,0.015,,
461,0.015,,
462,0.015,,
463,0.015,,
464,0.014,,
465,0.014,,
466,0.014,,
467,0.015,,
468,0.014,,
469,0.012,,
470,0.01,,
471,0.011,,
472,0.012,,
473,0.013,,
474,0.014,,
475,0.013,,
476,0.013,,
477,0.012,,
478,0.012,,
479,0.012,,
480,0.012,,
481,0.011,,
482,0.011,,
483,0.012,,
484,0.013,,
485,0.013,,
486,0.012,,
487,0.011,,
488,0.011,,
489,0.011,,
490,0.011,,
491,0.01,,
492,0.01,,
493,0.01,,
494,0.011,,
495,0.01,,
496,0.01,,
497,0.01,,
498,0.01,,
499,0.011,,
500,0.011,,
501,0.01,,
502,0.01,,
503,0.01,,
504,0.011,,
505,0.009,,
506,0.008,,
507,0.007,,
508,0.009,,
509,0.01,,
510,0.01,,
511,0.01,,
512,0.009,,
513,0.01,,
514,0.01,,
515,0.01,,
516,0.009,,
517,0.008,,
518,0.008,,
519,0.009,,
520,0.008,,
521,0.007,,
522,0.006,,
523,0.007,,
524,0.007,,
525,0.007,,
526,0.007,,
527,0.006,,
528,0.006,,
529,0.006,,
530,0.006,,
531,0.006,,
532,0.006,,
533,0.006,,
534,0.006,,
535,0.006,,
536,0.007,,
537,0.007,,
538,0.006,,
539,0.006,,
540,0.005,,
541,0.005,,
542,0.005,,
543,0.006,,
544,0.006,,
545,0.006,,
546,0.005,,
547,0.005,,
548,0.005,,
549,0.005,,
550,0.006,,
551,0.006,,
552,0.007,,
553,0.006,,
554,0.004,,
555,0.004,,
556,0.005,,
557,0.005,,
558,0.006,,
559,0.004,,
560,0.005,,
561,0.005,,
562,0.006,,
563,0.005,,
564,0.004,,
565,0.004,,
566,0.004,,
567,0.005,,
568,0.006,,
569,0.005,,
570,0.004,,
571,0.004,,
572,0.004,,
573,0.004,,
574,0.004,,
575,0.004,,
576,0.004,,
577,0.004,,
578,0.005,,
579,0.005,,
580,0.002,,
581,0,,
582,0.002,,
583,0.004,,
584,0.003,,
585,0.004,,
586,0.002,,
587,0.003,,
588,0.004,,
589,0.003,,
590,0.003,,
591,0.003,,
592,0.001,,
593,0.002,,
594,0.001,,
595,0.002,,
596,0.002,,
597,0.002,,
598,0.002,,
599,0.002,,
600,0.003,,
601,0.003,,
602,0.003,,
603,0.002,,
604,0.002,,
605,0.002,,
606,0.002,,
607,0.002,,
608,0.002,,
609,0.002,,
610,0,,
611,0.001,,
612,0.002,,
613,0.002,,
614,0.002,,
615,0.003,,
616,0.004,,
617,0.004,,
618,0.003,,
619,0.002,,
620,0,,
621,0.001,,
622,0.001,,
623,0.002,,
624,0.002,,
625,0.003,,
626,0.002,,
627,0.002,,
628,0.001,,
629,0,,
630,0.001,,
631,0.001,,
632,0.001,,
633,0.002,,
634,0.002,,
635,0.002,,
636,0.002,,
637,0.001,,
638,0.001,,
639,0.002,,
640,0.001,,
641,0.001,,
642,0.001,,
643,0.001,,
644,0,,
645,-0.001,,
646,0,,
647,0,,
648,0.002,,
649,0.001,,
650,0,,
651,0,,
652,0,,
653,0.001,,
654,0,,
655,-0.001,,
656,-0.001,,
657,0,,
658,-0.001,,
659,-0.001,,
660,-0.001,,
661,0,,
662,0.001,,
663,0,,
664,0.001,,
665,0,,
666,-0.001,,
667,-0.001,,
668,-0.001,,
669,0,,
670,-0.001,,
671,-0.001,,
672,-0.002,,
673,-0.002,,
674,-0.002,,
675,-0.001,,
676,0,,
677,0.001,,
678,0,,
679,0,,
680,-0.001,,
681,-0.001,,
682,-0.001,,
683,-0.001,,
684,-0.002,,
685,-0.002,,
686,-0.002,,
687,-0.003,,
688,-0.002,,
689,-0.001,,
690,0,,
691,-0.001,,
692,-0.003,,
693,-0.002,,
694,-0.001,,
695,0,,
696,-0.001,,
697,0,,
698,-0.001,,
699,-0.002,,
700,-0.002,,
701,-0.002,,
702,-0.003,,
703,-0.003,,
704,-0.003,,
705,-0.002,,
706,-0.001,,
707,-0.001,,
708,-0.002,,
709,-0.001,,
710,0,,
711,-0.001,,
712,-0.003,,
713,-0.003,,
714,-0.001,,
715,-0.001,,
716,-0.002,,
717,-0.002,,
718,-0.001,,
719,-0.001,,
720,-0.002,,
721,-0.002,,
722,-0.001,,
723,-0.002,,
724,-0.003,,
725,-0.002,,
726,0,,
727,-0.002,,
728,-0.002,,
729,-0.001,,
730,-0.001,,
731,-0.003,,
732,-0.004,,
733,-0.003,,
734,-0.003,,
735,-0.002,,
736,-0.005,,
737,-0.005,,
738,-0.003,,
739,0,,
740,0,,
741,-0.002,,
742,-0.001,,
743,-0.001,,
744,-0.001,,
745,-0.002,,
746,-0.002,,
747,0,,
748,0.001,,
749,0,,
750,0,,