Wavelength (nm),Absorbance,Title,Time
220,0.287,1L_22sept2015,10/15/2015 10:59:21 AM
221,0.242,,
222,0.253,,
223,0.257,,
224,0.249,,
225,0.249,,
226,0.252,,
227,0.255,,
228,0.258,,
229,0.256,,
230,0.251,,
231,0.241,,
232,0.235,,
233,0.231,,
234,0.226,,
235,0.222,,
236,0.217,,
237,0.214,,
238,0.212,,
239,0.208,,
240,0.206,,
241,0.204,,
242,0.202,,
243,0.198,,
244,0.195,,
245,0.192,,
246,0.192,,
247,0.192,,
248,0.192,,
249,0.189,,
250,0.186,,
251,0.184,,
252,0.186,,
253,0.184,,
254,0.182,,
255,0.179,,
256,0.178,,
257,0.178,,
258,0.177,,
259,0.178,,
260,0.176,,
261,0.175,,
262,0.173,,
263,0.171,,
264,0.17,,
265,0.169,,
266,0.169,,
267,0.168,,
268,0.166,,
269,0.164,,
270,0.163,,
271,0.163,,
272,0.161,,
273,0.158,,
274,0.157,,
275,0.155,,
276,0.153,,
277,0.151,,
278,0.148,,
279,0.147,,
280,0.145,,
281,0.144,,
282,0.141,,
283,0.139,,
284,0.136,,
285,0.134,,
286,0.132,,
287,0.13,,
288,0.128,,
289,0.126,,
290,0.124,,
291,0.123,,
292,0.121,,
293,0.118,,
294,0.116,,
295,0.114,,
296,0.113,,
297,0.112,,
298,0.109,,
299,0.107,,
300,0.105,,
301,0.103,,
302,0.102,,
303,0.101,,
304,0.099,,
305,0.097,,
306,0.095,,
307,0.093,,
308,0.092,,
309,0.091,,
310,0.089,,
311,0.088,,
312,0.086,,
313,0.086,,
314,0.085,,
315,0.083,,
316,0.082,,
317,0.081,,
318,0.078,,
319,0.076,,
320,0.075,,
321,0.074,,
322,0.074,,
323,0.073,,
324,0.072,,
325,0.071,,
326,0.069,,
327,0.068,,
328,0.068,,
329,0.067,,
330,0.066,,
331,0.065,,
332,0.063,,
333,0.062,,
334,0.062,,
335,0.061,,
336,0.061,,
337,0.06,,
338,0.059,,
339,0.058,,
340,0.058,,
341,0.057,,
342,0.056,,
343,0.054,,
344,0.053,,
345,0.052,,
346,0.053,,
347,0.052,,
348,0.051,,
349,0.05,,
350,0.049,,
351,0.047,,
352,0.047,,
353,0.048,,
354,0.047,,
355,0.046,,
356,0.045,,
357,0.045,,
358,0.044,,
359,0.044,,
360,0.042,,
361,0.043,,
362,0.043,,
363,0.041,,
364,0.041,,
365,0.039,,
366,0.039,,
367,0.039,,
368,0.038,,
369,0.038,,
370,0.037,,
371,0.037,,
372,0.036,,
373,0.035,,
374,0.035,,
375,0.034,,
376,0.033,,
377,0.032,,
378,0.033,,
379,0.033,,
380,0.033,,
381,0.032,,
382,0.032,,
383,0.032,,
384,0.029,,
385,0.028,,
386,0.028,,
387,0.029,,
388,0.028,,
389,0.027,,
390,0.027,,
391,0.027,,
392,0.028,,
393,0.028,,
394,0.029,,
395,0.027,,
396,0.026,,
397,0.023,,
398,0.023,,
399,0.023,,
400,0.023,,
401,0.022,,
402,0.022,,
403,0.022,,
404,0.023,,
405,0.023,,
406,0.023,,
407,0.023,,
408,0.022,,
409,0.022,,
410,0.021,,
411,0.021,,
412,0.021,,
413,0.02,,
414,0.021,,
415,0.021,,
416,0.02,,
417,0.02,,
418,0.019,,
419,0.018,,
420,0.018,,
421,0.018,,
422,0.018,,
423,0.017,,
424,0.016,,
425,0.016,,
426,0.016,,
427,0.016,,
428,0.016,,
429,0.016,,
430,0.016,,
431,0.016,,
432,0.016,,
433,0.015,,
434,0.016,,
435,0.016,,
436,0.016,,
437,0.015,,
438,0.014,,
439,0.014,,
440,0.014,,
441,0.014,,
442,0.014,,
443,0.014,,
444,0.013,,
445,0.013,,
446,0.013,,
447,0.013,,
448,0.012,,
449,0.012,,
450,0.012,,
451,0.013,,
452,0.013,,
453,0.012,,
454,0.012,,
455,0.012,,
456,0.012,,
457,0.012,,
458,0.011,,
459,0.01,,
460,0.01,,
461,0.011,,
462,0.011,,
463,0.011,,
464,0.011,,
465,0.011,,
466,0.01,,
467,0.01,,
468,0.009,,
469,0.01,,
470,0.008,,
471,0.009,,
472,0.009,,
473,0.009,,
474,0.01,,
475,0.009,,
476,0.009,,
477,0.008,,
478,0.008,,
479,0.009,,
480,0.009,,
481,0.008,,
482,0.008,,
483,0.008,,
484,0.009,,
485,0.009,,
486,0.008,,
487,0.008,,
488,0.008,,
489,0.008,,
490,0.007,,
491,0.007,,
492,0.008,,
493,0.008,,
494,0.007,,
495,0.007,,
496,0.007,,
497,0.007,,
498,0.008,,
499,0.008,,
500,0.008,,
501,0.007,,
502,0.007,,
503,0.007,,
504,0.008,,
505,0.007,,
506,0.005,,
507,0.004,,
508,0.006,,
509,0.008,,
510,0.008,,
511,0.007,,
512,0.006,,
513,0.006,,
514,0.006,,
515,0.006,,
516,0.006,,
517,0.005,,
518,0.005,,
519,0.006,,
520,0.006,,
521,0.005,,
522,0.004,,
523,0.004,,
524,0.004,,
525,0.004,,
526,0.004,,
527,0.004,,
528,0.003,,
529,0.003,,
530,0.004,,
531,0.004,,
532,0.003,,
533,0.003,,
534,0.004,,
535,0.004,,
536,0.004,,
537,0.004,,
538,0.004,,
539,0.003,,
540,0.003,,
541,0.003,,
542,0.003,,
543,0.004,,
544,0.004,,
545,0.003,,
546,0.003,,
547,0.003,,
548,0.004,,
549,0.003,,
550,0.003,,
551,0.004,,
552,0.004,,
553,0.003,,
554,0.002,,
555,0.003,,
556,0.002,,
557,0.003,,
558,0.004,,
559,0.003,,
560,0.003,,
561,0.003,,
562,0.003,,
563,0.003,,
564,0.002,,
565,0.001,,
566,0.001,,
567,0.003,,
568,0.004,,
569,0.003,,
570,0.003,,
571,0.003,,
572,0.003,,
573,0.002,,
574,0.002,,
575,0.002,,
576,0.002,,
577,0.002,,
578,0.002,,
579,0.003,,
580,0.002,,
581,0,,
582,0.001,,
583,0.002,,
584,0.002,,
585,0.002,,
586,0.001,,
587,0.001,,
588,0.001,,
589,0.002,,
590,0.002,,
591,0.002,,
592,0.001,,
593,0,,
594,-0.001,,
595,0,,
596,0.001,,
597,0.001,,
598,0.001,,
599,0.001,,
600,0.001,,
601,0.001,,
602,0.001,,
603,0.001,,
604,0.001,,
605,0.001,,
606,0,,
607,0.001,,
608,0.001,,
609,0.001,,
610,-0.001,,
611,0.001,,
612,0.002,,
613,0.001,,
614,0,,
615,0.001,,
616,0.003,,
617,0.003,,
618,0.001,,
619,0,,
620,0,,
621,0,,
622,-0.001,,
623,0.001,,
624,0.001,,
625,0.001,,
626,0,,
627,0.001,,
628,0,,
629,0,,
630,0,,
631,0,,
632,0,,
633,0.001,,
634,0.001,,
635,0,,
636,0.001,,
637,0.001,,
638,0.001,,
639,0.001,,
640,0.001,,
641,0.001,,
642,0.001,,
643,0.001,,
644,0,,
645,-0.001,,
646,-0.001,,
647,0,,
648,0.001,,
649,0,,
650,-0.001,,
651,-0.001,,
652,-0.001,,
653,0,,
654,0,,
655,-0.001,,
656,-0.001,,
657,0,,
658,0,,
659,-0.002,,
660,-0.002,,
661,-0.001,,
662,0,,
663,0,,
664,0.001,,
665,0,,
666,0,,
667,0,,
668,0,,
669,0,,
670,-0.001,,
671,-0.001,,
672,-0.001,,
673,-0.001,,
674,0,,
675,-0.001,,
676,0,,
677,0.001,,
678,0.001,,
679,-0.001,,
680,-0.002,,
681,-0.002,,
682,-0.002,,
683,-0.002,,
684,-0.002,,
685,-0.002,,
686,-0.002,,
687,-0.002,,
688,-0.001,,
689,-0.001,,
690,-0.001,,
691,-0.002,,
692,-0.002,,
693,-0.002,,
694,-0.002,,
695,-0.002,,
696,0,,
697,0,,
698,-0.001,,
699,-0.003,,
700,-0.002,,
701,-0.001,,
702,-0.003,,
703,-0.003,,
704,-0.003,,
705,-0.002,,
706,-0.001,,
707,0,,
708,-0.001,,
709,0,,
710,0.001,,
711,0.001,,
712,-0.002,,
713,-0.002,,
714,-0.001,,
715,-0.001,,
716,-0.002,,
717,-0.002,,
718,-0.001,,
719,0,,
720,-0.001,,
721,-0.002,,
722,0,,
723,-0.001,,
724,-0.002,,
725,-0.001,,
726,0.002,,
727,-0.001,,
728,-0.002,,
729,-0.003,,
730,-0.002,,
731,-0.003,,
732,-0.003,,
733,-0.003,,
734,-0.003,,
735,-0.003,,
736,-0.004,,
737,-0.004,,
738,-0.002,,
739,0.001,,
740,0.001,,
741,-0.001,,
742,-0.001,,
743,-0.002,,
744,-0.002,,
745,-0.002,,
746,-0.001,,
747,0.001,,
748,0.002,,
749,0,,
750,0,,