Wavelength (nm),Absorbance,Title,Time
190,0.417,12S_24sept2015,10/15/2015 10:38:45 AM
191,0.297,,
192,-0.051,,
193,-0.382,,
194,-0.635,,
195,-0.479,,
196,-0.203,,
197,-0.145,,
198,-0.223,,
199,-0.338,,
200,-0.531,,
201,-0.37,,
202,-0.458,,
203,-0.238,,
204,0.016,,
205,-0.361,,
206,-0.559,,
207,-0.393,,
208,0.211,,
209,0.848,,
210,0.652,,
211,0.077,,
212,-0.291,,
213,-0.241,,
214,0.086,,
215,0.196,,
216,0.09,,
217,-0.065,,
218,-0.033,,
219,0.08,,
220,0.189,,
221,0.187,,
222,0.184,,
223,0.178,,
224,0.178,,
225,0.187,,
226,0.191,,
227,0.19,,
228,0.187,,
229,0.187,,
230,0.184,,
231,0.18,,
232,0.176,,
233,0.174,,
234,0.172,,
235,0.169,,
236,0.165,,
237,0.161,,
238,0.158,,
239,0.156,,
240,0.154,,
241,0.152,,
242,0.152,,
243,0.152,,
244,0.151,,
245,0.148,,
246,0.148,,
247,0.15,,
248,0.149,,
249,0.147,,
250,0.145,,
251,0.143,,
252,0.141,,
253,0.138,,
254,0.136,,
255,0.135,,
256,0.135,,
257,0.135,,
258,0.134,,
259,0.135,,
260,0.135,,
261,0.134,,
262,0.132,,
263,0.13,,
264,0.129,,
265,0.127,,
266,0.126,,
267,0.124,,
268,0.123,,
269,0.121,,
270,0.121,,
271,0.121,,
272,0.12,,
273,0.118,,
274,0.117,,
275,0.116,,
276,0.113,,
277,0.112,,
278,0.11,,
279,0.109,,
280,0.107,,
281,0.105,,
282,0.103,,
283,0.101,,
284,0.1,,
285,0.099,,
286,0.097,,
287,0.095,,
288,0.094,,
289,0.093,,
290,0.091,,
291,0.089,,
292,0.088,,
293,0.088,,
294,0.087,,
295,0.086,,
296,0.084,,
297,0.084,,
298,0.082,,
299,0.08,,
300,0.078,,
301,0.077,,
302,0.076,,
303,0.075,,
304,0.075,,
305,0.074,,
306,0.072,,
307,0.07,,
308,0.069,,
309,0.069,,
310,0.069,,
311,0.067,,
312,0.066,,
313,0.065,,
314,0.064,,
315,0.063,,
316,0.062,,
317,0.062,,
318,0.061,,
319,0.059,,
320,0.057,,
321,0.057,,
322,0.057,,
323,0.057,,
324,0.056,,
325,0.055,,
326,0.054,,
327,0.053,,
328,0.052,,
329,0.052,,
330,0.05,,
331,0.049,,
332,0.048,,
333,0.048,,
334,0.048,,
335,0.048,,
336,0.046,,
337,0.045,,
338,0.045,,
339,0.044,,
340,0.045,,
341,0.044,,
342,0.043,,
343,0.042,,
344,0.041,,
345,0.04,,
346,0.04,,
347,0.039,,
348,0.039,,
349,0.039,,
350,0.038,,
351,0.037,,
352,0.036,,
353,0.035,,
354,0.036,,
355,0.035,,
356,0.035,,
357,0.035,,
358,0.034,,
359,0.034,,
360,0.033,,
361,0.033,,
362,0.032,,
363,0.032,,
364,0.031,,
365,0.031,,
366,0.031,,
367,0.03,,
368,0.029,,
369,0.028,,
370,0.027,,
371,0.028,,
372,0.027,,
373,0.027,,
374,0.027,,
375,0.026,,
376,0.026,,
377,0.025,,
378,0.025,,
379,0.024,,
380,0.024,,
381,0.023,,
382,0.022,,
383,0.022,,
384,0.022,,
385,0.021,,
386,0.022,,
387,0.023,,
388,0.023,,
389,0.022,,
390,0.021,,
391,0.021,,
392,0.021,,
393,0.02,,
394,0.019,,
395,0.019,,
396,0.019,,
397,0.018,,
398,0.017,,
399,0.017,,
400,0.015,,
401,0.015,,
402,0.016,,
403,0.017,,
404,0.017,,
405,0.017,,
406,0.017,,
407,0.017,,
408,0.016,,
409,0.015,,
410,0.015,,
411,0.015,,
412,0.015,,
413,0.014,,
414,0.014,,
415,0.015,,
416,0.014,,
417,0.014,,
418,0.014,,
419,0.014,,
420,0.013,,
421,0.013,,
422,0.013,,
423,0.013,,
424,0.012,,
425,0.012,,
426,0.011,,
427,0.011,,
428,0.011,,
429,0.011,,
430,0.012,,
431,0.011,,
432,0.011,,
433,0.011,,
434,0.011,,
435,0.01,,
436,0.01,,
437,0.01,,
438,0.01,,
439,0.009,,
440,0.009,,
441,0.01,,
442,0.009,,
443,0.009,,
444,0.009,,
445,0.009,,
446,0.009,,
447,0.009,,
448,0.009,,
449,0.009,,
450,0.008,,
451,0.008,,
452,0.008,,
453,0.009,,
454,0.008,,
455,0.007,,
456,0.007,,
457,0.007,,
458,0.007,,
459,0.006,,
460,0.006,,
461,0.007,,
462,0.007,,
463,0.007,,
464,0.007,,
465,0.007,,
466,0.007,,
467,0.007,,
468,0.006,,
469,0.006,,
470,0.006,,
471,0.005,,
472,0.006,,
473,0.005,,
474,0.005,,
475,0.005,,
476,0.004,,
477,0.005,,
478,0.005,,
479,0.006,,
480,0.005,,
481,0.005,,
482,0.004,,
483,0.005,,
484,0.005,,
485,0.006,,
486,0.005,,
487,0.005,,
488,0.005,,
489,0.005,,
490,0.004,,
491,0.004,,
492,0.004,,
493,0.004,,
494,0.004,,
495,0.004,,
496,0.004,,
497,0.004,,
498,0.004,,
499,0.005,,
500,0.004,,
501,0.003,,
502,0.004,,
503,0.004,,
504,0.004,,
505,0.004,,
506,0.003,,
507,0.003,,
508,0.003,,
509,0.003,,
510,0.003,,
511,0.002,,
512,0.003,,
513,0.003,,
514,0.003,,
515,0.002,,
516,0.002,,
517,0.002,,
518,0.003,,
519,0.003,,
520,0.003,,
521,0.002,,
522,0.002,,
523,0.001,,
524,0.002,,
525,0.003,,
526,0.002,,
527,0.002,,
528,0.002,,
529,0.003,,
530,0.003,,
531,0.003,,
532,0.003,,
533,0.002,,
534,0.002,,
535,0.002,,
536,0.003,,
537,0.002,,
538,0.002,,
539,0.002,,
540,0.002,,
541,0.001,,
542,0.001,,
543,0.001,,
544,0.002,,
545,0.001,,
546,0.001,,
547,0,,
548,0.001,,
549,0.002,,
550,0.001,,
551,0,,
552,0,,
553,0,,
554,0.001,,
555,0.001,,
556,0.001,,
557,0,,
558,0.001,,
559,0.001,,
560,0.001,,
561,0,,
562,0.001,,
563,0.002,,
564,0.002,,
565,0,,
566,0,,
567,-0.002,,
568,-0.001,,
569,-0.001,,
570,0,,
571,0.001,,
572,0,,
573,0,,
574,0,,
575,0,,
576,-0.001,,
577,-0.001,,
578,0,,
579,0.001,,
580,-0.001,,
581,-0.001,,
582,-0.002,,
583,-0.001,,
584,0.001,,
585,0,,
586,0,,
587,0,,
588,0,,
589,0.001,,
590,0,,
591,0,,
592,-0.001,,
593,0,,
594,0,,
595,-0.001,,
596,0,,
597,0,,
598,0.001,,
599,-0.001,,
600,-0.002,,
601,-0.001,,
602,0,,
603,-0.001,,
604,0,,
605,0,,
606,0,,
607,0.001,,
608,0.002,,
609,0.002,,
610,0,,
611,0,,
612,-0.001,,
613,-0.001,,
614,0,,
615,0,,
616,0,,
617,-0.001,,
618,-0.001,,
619,-0.001,,
620,-0.001,,
621,-0.001,,
622,-0.001,,
623,0,,
624,0,,
625,-0.001,,
626,-0.001,,
627,-0.001,,
628,-0.001,,
629,-0.001,,
630,-0.001,,
631,-0.002,,
632,-0.001,,
633,0,,
634,0,,
635,-0.001,,
636,-0.001,,
637,-0.002,,
638,-0.001,,
639,0,,
640,0.001,,
641,0,,
642,0,,
643,0,,
644,0,,
645,-0.001,,
646,-0.001,,
647,-0.002,,
648,-0.002,,
649,-0.002,,
650,-0.002,,
651,-0.002,,
652,0,,
653,-0.001,,
654,-0.001,,
655,-0.001,,
656,-0.002,,
657,-0.002,,
658,-0.002,,
659,-0.001,,
660,-0.001,,
661,-0.002,,
662,-0.002,,
663,-0.001,,
664,0,,
665,-0.001,,
666,-0.002,,
667,-0.002,,
668,-0.002,,
669,-0.002,,
670,-0.002,,
671,-0.001,,
672,-0.002,,
673,-0.001,,
674,0,,
675,0,,
676,-0.001,,
677,-0.001,,
678,-0.001,,
679,0,,
680,-0.001,,
681,-0.001,,
682,-0.001,,
683,-0.003,,
684,-0.003,,
685,-0.002,,
686,-0.001,,
687,-0.002,,
688,-0.003,,
689,-0.001,,
690,-0.001,,
691,-0.002,,
692,-0.001,,
693,-0.001,,
694,-0.001,,
695,-0.002,,
696,0,,
697,0.001,,
698,0.001,,
699,-0.001,,
700,-0.001,,
701,-0.002,,
702,-0.003,,
703,-0.002,,
704,-0.001,,
705,0,,
706,0.002,,
707,0.002,,
708,0,,
709,-0.002,,
710,-0.002,,
711,-0.001,,
712,-0.001,,
713,-0.002,,
714,-0.003,,
715,-0.003,,
716,-0.002,,
717,-0.001,,
718,-0.001,,
719,0,,
720,0,,
721,-0.001,,
722,-0.003,,
723,-0.004,,
724,-0.002,,
725,-0.002,,
726,-0.002,,
727,-0.001,,
728,-0.001,,
729,-0.003,,
730,-0.003,,
731,-0.002,,
732,-0.002,,
733,-0.001,,
734,-0.002,,
735,-0.002,,
736,-0.001,,
737,0,,
738,-0.001,,
739,-0.003,,
740,-0.001,,
741,0,,
742,-0.003,,
743,-0.006,,
744,-0.002,,
745,0,,
746,0.001,,
747,0,,
748,-0.001,,
749,-0.002,,
750,0,,
751,-0.001,,
752,0.001,,
753,0.001,,
754,-0.001,,
755,-0.001,,
756,0,,
757,-0.001,,
758,-0.002,,
759,-0.001,,
760,-0.002,,
761,-0.003,,
762,-0.003,,
763,-0.002,,
764,-0.002,,
765,-0.003,,
766,-0.003,,
767,-0.001,,
768,-0.002,,
769,-0.006,,
770,-0.005,,
771,-0.004,,
772,-0.003,,
773,-0.004,,
774,-0.004,,
775,-0.006,,
776,-0.002,,
777,0,,
778,-0.002,,
779,-0.006,,
780,-0.004,,
781,0,,
782,-0.001,,
783,-0.001,,
784,0.001,,
785,0.004,,
786,0.001,,
787,-0.001,,
788,-0.002,,
789,-0.002,,
790,-0.003,,
791,-0.005,,
792,-0.007,,
793,-0.002,,
794,0.001,,
795,0,,
796,-0.007,,
797,-0.005,,
798,-0.001,,
799,0.005,,
800,0.003,,
801,0,,
802,0.001,,
803,0.004,,
804,0.003,,
805,-0.001,,
806,-0.003,,
807,-0.003,,
808,-0.003,,
809,-0.001,,
810,-0.002,,
811,-0.004,,
812,-0.004,,
813,0,,
814,0,,
815,0.002,,
816,0,,
817,0.002,,
818,0,,
819,-0.001,,
820,-0.002,,
821,-0.001,,
822,-0.001,,
823,-0.001,,
824,-0.002,,
825,-0.001,,
826,0,,
827,0.002,,
828,0.001,,
829,0.002,,
830,0,,
831,0,,
832,0,,
833,0.004,,
834,0.002,,
835,0,,
836,-0.001,,
837,0.003,,
838,-0.002,,
839,-0.009,,
840,-0.007,,